,density,time
0,833.2604311174936,0.0
1,831.1735049726315,0.016666666666666666
2,829.2797283587175,0.03333333333333333
3,827.36207605017,0.05
4,825.5195559972,0.06666666666666667
5,823.4557295950632,0.08333333333333333
6,821.2288546140095,0.1
7,818.7900141110024,0.11666666666666667
8,816.1695626120845,0.13333333333333333
9,813.4620591165127,0.15
10,810.8868194477068,0.16666666666666666
11,808.4275094437075,0.18333333333333332
12,805.7244594124171,0.2
13,802.8562583943477,0.21666666666666667
14,799.9253704921302,0.23333333333333334
15,796.9021440789687,0.25
16,793.8123788310896,0.26666666666666666
17,790.7015137063073,0.2833333333333333
18,787.6608391086223,0.3
19,784.5812953862132,0.31666666666666665
20,781.1991394431446,0.3333333333333333
21,777.6180972937051,0.35
22,774.0184381491562,0.36666666666666664
23,770.3767055174075,0.3833333333333333
24,766.8151432186547,0.4
25,763.3518578384653,0.4166666666666667
26,759.8119389920188,0.43333333333333335
27,756.5273110940783,0.45
28,753.0040735051408,0.4666666666666667
29,749.4752163709836,0.48333333333333334
30,745.9172559087144,0.5
31,742.4534496228758,0.5166666666666666
32,738.6272235397633,0.5333333333333333
33,734.742223190887,0.55
34,730.9444734169035,0.5666666666666667
35,727.287790595813,0.5833333333333334
36,723.8399913184996,0.6
37,720.3189024252032,0.6166666666666667
38,716.8671069845094,0.6333333333333333
39,713.4060673856454,0.65
40,709.9275647001318,0.6666666666666666
41,706.3488312014074,0.6833333333333333
42,702.6781144732907,0.7
43,698.921360060644,0.7166666666666667
44,695.2048013349324,0.7333333333333333
45,691.5719083533277,0.75
46,687.9434593902807,0.7666666666666666
47,684.1523493519959,0.7833333333333333
48,680.1132743156301,0.8
49,675.8396231170282,0.8166666666666667
50,671.5356407952685,0.8333333333333334
51,667.1348292376541,0.85
52,662.7374061379104,0.8666666666666667
53,658.3950855670693,0.8833333333333333
54,654.0507595664035,0.9
55,649.7637946814832,0.9166666666666666
56,645.666198115596,0.9333333333333333
57,641.6302913359963,0.95
58,637.4515987098208,0.9666666666666667
59,633.3655638762052,0.9833333333333333
60,629.2404023507609,1.0
61,625.114358969174,1.0166666666666666
62,621.0620936757466,1.0333333333333332
63,617.3433120496635,1.05
64,613.7542957295501,1.0666666666666667
65,609.9136753156915,1.0833333333333333
66,606.655852273846,1.1
67,603.4965580488313,1.1166666666666667
68,600.4898270139876,1.1333333333333333
69,597.3743229667908,1.15
70,594.3017222018605,1.1666666666666667
71,591.0430171991468,1.1833333333333333
72,587.7560050797306,1.2
73,584.356143701206,1.2166666666666666
74,580.6452576306472,1.2333333333333334
75,576.7155894479172,1.25
76,572.7034206577332,1.2666666666666666
77,568.540312899896,1.2833333333333332
78,564.2991194806699,1.3
79,559.9343782439513,1.3166666666666667
80,555.6300491413263,1.3333333333333333
81,551.0099824266232,1.35
82,546.3476298951259,1.3666666666666667
83,541.8471906133043,1.3833333333333333
84,537.5335737957646,1.4
85,533.7445911475991,1.4166666666666667
86,529.9362860832837,1.4333333333333333
87,526.0420346491243,1.45
88,521.9290983971795,1.4666666666666666
89,518.045415897573,1.4833333333333334
90,514.5617906404865,1.5
91,511.47368876347787,1.5166666666666666
92,508.32333263833027,1.5333333333333332
93,505.46294467772645,1.55
94,502.810733893759,1.5666666666666667
95,500.41153699966145,1.5833333333333333
96,498.3148672029211,1.6
97,496.27479967689976,1.6166666666666667
98,494.2003175392907,1.6333333333333333
99,492.2059331038793,1.65
100,490.28745561667824,1.6666666666666667
101,488.3593261062681,1.6833333333333333
102,486.4781644751463,1.7
103,484.73727862418536,1.7166666666666666
104,482.9542821308403,1.7333333333333334
105,481.1336019045433,1.75
106,479.285314524505,1.7666666666666666
107,477.6211197611647,1.7833333333333332
108,476.05854870543953,1.8
109,474.811372258892,1.8166666666666667
110,473.7996948679763,1.8333333333333333
111,472.83156383703954,1.8499999999999999
112,471.96327370038034,1.8666666666666667
113,471.0478559384751,1.8833333333333333
114,470.234041942268,1.9
115,469.3265462898188,1.9166666666666667
116,468.36500818335827,1.9333333333333333
117,467.2314747921749,1.95
118,465.94680742083204,1.9666666666666666
119,464.4148848810313,1.9833333333333334
120,462.95732903395964,2.0
121,461.31725882052075,2.0166666666666666
122,459.7286439558915,2.033333333333333
123,458.0793206633599,2.05
124,456.4507909784095,2.0666666666666664
125,454.8073104760605,2.0833333333333335
126,453.06816534989895,2.1
127,451.1356438804899,2.1166666666666667
128,449.20375814091443,2.1333333333333333
129,447.26480055502043,2.15
130,445.0513763363384,2.1666666666666665
131,442.5737264273754,2.183333333333333
132,439.9218519292255,2.2
133,437.49123560255066,2.216666666666667
134,434.9678207355356,2.2333333333333334
135,432.38459986627385,2.25
136,429.82490749173456,2.2666666666666666
137,427.4383360755703,2.283333333333333
138,424.87755130060066,2.3
139,422.3021783365348,2.3166666666666664
140,419.7466655917048,2.3333333333333335
141,416.9873943924937,2.35
142,413.9728161865136,2.3666666666666667
143,410.887586585189,2.3833333333333333
144,408.04105630892195,2.4
145,405.02070762857534,2.4166666666666665
146,401.83335797413406,2.433333333333333
147,398.6770501123803,2.45
148,395.4173084423861,2.466666666666667
149,392.23151006485415,2.4833333333333334
150,389.0284763565837,2.5
151,385.78209728336407,2.5166666666666666
152,382.4678597404815,2.533333333333333
153,379.2630487826108,2.55
154,376.11287948304476,2.5666666666666664
155,372.8485313198072,2.5833333333333335
156,369.41636015334416,2.6
157,365.8787813407278,2.6166666666666667
158,362.3792515143887,2.6333333333333333
159,358.7548336646999,2.65
160,355.253618215515,2.6666666666666665
161,351.6802837453198,2.683333333333333
162,348.3371863764864,2.7
163,344.7686589740376,2.716666666666667
164,341.3689041285598,2.7333333333333334
165,338.19817832085477,2.75
166,334.99013361344277,2.7666666666666666
167,331.6572561963359,2.783333333333333
168,328.3230990286514,2.8
169,325.0396097120844,2.8166666666666664
170,321.7986065772329,2.8333333333333335
171,318.55129201458385,2.85
172,315.150909625852,2.8666666666666667
173,311.6564307881433,2.8833333333333333
174,308.2106461754305,2.9
175,304.6345092276745,2.9166666666666665
176,300.92645281899917,2.933333333333333
177,297.172254968603,2.95
178,293.47491233706785,2.966666666666667
179,289.6452989514961,2.9833333333333334
180,285.6686329756362,3.0
181,281.96336854969246,3.0166666666666666
182,278.29772621635124,3.033333333333333
183,274.61375520849157,3.05
184,271.0149999599311,3.0666666666666664
185,267.29267579856736,3.0833333333333335
186,263.4438931307418,3.1
187,259.5326155472131,3.1166666666666667
188,255.74587889118274,3.1333333333333333
189,252.4541774663684,3.15
190,249.36485513974492,3.1666666666666665
191,246.2572887349609,3.183333333333333
192,243.1074719888847,3.2
193,240.05090971997555,3.216666666666667
194,237.09737559828912,3.2333333333333334
195,234.3131529913616,3.25
196,231.62359591468106,3.2666666666666666
197,228.92332086247046,3.283333333333333
198,226.31672778155243,3.3
199,223.67959743936,3.3166666666666664
200,221.05665634194227,3.3333333333333335
201,218.46148445330795,3.35
202,215.77690688981284,3.3666666666666667
203,213.12821271738122,3.3833333333333333
204,210.44149065576246,3.4
205,207.66915766867996,3.4166666666666665
206,205.04479460349697,3.433333333333333
207,202.52163341967892,3.4499999999999997
208,200.20413745823575,3.466666666666667
209,198.08344964463026,3.4833333333333334
210,195.99993190034732,3.5
211,193.94898172013336,3.5166666666666666
212,191.82695506484367,3.533333333333333
213,189.70352365414618,3.55
214,187.65107478196708,3.5666666666666664
215,185.70421513345647,3.5833333333333335
216,183.75709844253296,3.6
217,181.75256165035393,3.6166666666666667
218,179.71235925393958,3.6333333333333333
219,177.61259215364996,3.65
220,175.42587895882681,3.6666666666666665
221,173.2416098112406,3.683333333333333
222,171.1054500643255,3.6999999999999997
223,168.94726051541738,3.716666666666667
224,166.87409979602347,3.7333333333333334
225,164.7093695921152,3.75
226,162.4852428269326,3.7666666666666666
227,160.3471102930689,3.783333333333333
228,158.25979486106544,3.8
229,156.02415202114054,3.8166666666666664
230,153.6717002854613,3.8333333333333335
231,151.27258924541417,3.85
232,148.86038377609938,3.8666666666666667
233,146.40799395524104,3.8833333333333333
234,144.03312365360176,3.9
235,141.68374602689394,3.9166666666666665
236,139.28907092379262,3.933333333333333
237,136.82033707448818,3.9499999999999997
238,134.4803059396179,3.966666666666667
239,132.31963770766532,3.9833333333333334
240,130.0478324987929,4.0
241,127.65258432603301,4.016666666666667
242,125.39954368289945,4.033333333333333
243,123.29594520341367,4.05
244,121.1162734177379,4.066666666666666
245,118.99764844441609,4.083333333333333
246,116.95030178112287,4.1
247,114.97747798732385,4.116666666666666
248,113.13120485244595,4.133333333333333
249,111.25673606489195,4.15
250,109.45885057321016,4.166666666666667
251,107.71376084705953,4.183333333333334
252,106.06819777178809,4.2
253,104.34836813377964,4.216666666666667
254,102.67097849583055,4.233333333333333
255,100.90015406337915,4.25
256,99.08910224568753,4.266666666666667
257,97.1998547707321,4.283333333333333
258,95.33654457119617,4.3
259,93.56999895287763,4.316666666666666
260,91.87641044332148,4.333333333333333
261,90.22489479129892,4.35
262,88.50920290490619,4.366666666666666
263,86.79462755946362,4.383333333333333
264,85.08284986407902,4.4
265,83.36086208414136,4.416666666666667
266,81.6281096229181,4.433333333333334
267,80.16784701839342,4.45
268,79.06965407090047,4.466666666666667
269,78.1039972106438,4.483333333333333
270,77.2399250132291,4.5
271,76.35906953931044,4.516666666666667
272,75.50689630234261,4.533333333333333
273,74.58002239759361,4.55
274,73.61353710559177,4.566666666666666
275,72.57568471016515,4.583333333333333
276,71.50633689406594,4.6
277,70.3484668326875,4.616666666666666
278,69.13600150421868,4.633333333333333
279,67.98790479849029,4.65
280,66.91219653995958,4.666666666666667
281,65.84625659879944,4.683333333333334
282,64.84553123979767,4.7
283,63.848742952261574,4.716666666666667
284,62.85317868308005,4.733333333333333
285,61.89928874641446,4.75
286,60.918612215681726,4.766666666666667
287,60.105272733745984,4.783333333333333
288,59.36560921702051,4.8
289,58.62436461588685,4.816666666666666
290,57.88207736396396,4.833333333333333
291,57.19169195259261,4.85
292,56.54121390934848,4.866666666666666
293,56.14474884767652,4.883333333333333
294,55.85877495735865,4.9
295,55.657427278961684,4.916666666666667
296,55.412083916303956,4.933333333333334
297,55.13822341537829,4.95
298,54.88618846857212,4.966666666666667
299,54.6472811179684,4.983333333333333
300,54.38228671681327,5.0
301,54.15893988420054,5.016666666666667
302,53.91093542147108,5.033333333333333
303,53.64523895785895,5.05
304,53.403064795786996,5.066666666666666
305,53.126331495151405,5.083333333333333
306,52.86861749220481,5.1
307,52.66525724823943,5.116666666666666
308,52.404336679195474,5.133333333333333
309,52.20333557134552,5.15
310,52.028705949666524,5.166666666666667
311,51.833891264341844,5.183333333333334
312,51.59992774087024,5.2
313,51.35578163208747,5.216666666666667
314,51.10562102145737,5.233333333333333
315,50.79335719734918,5.25
316,50.48108077842027,5.266666666666667
317,50.209664010006094,5.283333333333333
318,49.90684995620867,5.3
319,49.56883253260005,5.316666666666666
320,49.2631593233226,5.333333333333333
321,48.90294416552829,5.35
322,48.66757935043435,5.366666666666666
323,48.47850333755003,5.383333333333333
324,48.25032088963282,5.4
325,48.04958291103008,5.416666666666667
326,47.88930658270803,5.433333333333334
327,47.69714565043665,5.45
328,47.44906320416154,5.466666666666667
329,47.16232774036862,5.483333333333333
330,46.83885200967,5.5
331,46.480369180605585,5.516666666666667
332,46.24780516450037,5.533333333333333
333,46.07511190944325,5.55
334,45.86466313070602,5.566666666666666
335,45.63356862841552,5.583333333333333
336,45.415423504384115,5.6
337,45.19145878539815,5.616666666666666
338,44.95053026254735,5.633333333333333
339,44.65594731409822,5.65
340,44.333921260320636,5.666666666666667
341,44.00514726023751,5.683333333333334
342,43.62794615234274,5.7
343,43.25570020697014,5.716666666666667
344,42.84535720555164,5.733333333333333
345,42.412504745301774,5.75
346,41.97369981337484,5.766666666666667
347,41.51913189970841,5.783333333333333
348,41.06322052629391,5.8
349,40.60140748084968,5.816666666666666
350,40.14149490616322,5.833333333333333
351,39.672325473659434,5.85
352,39.28396850652772,5.866666666666666
353,38.93733068930795,5.883333333333333
354,38.606207418980226,5.9
355,38.2407401730642,5.916666666666667
356,37.82917546290174,5.933333333333334
357,37.41258915177943,5.95
358,37.08340676084096,5.966666666666667
359,36.74488354541402,5.983333333333333
360,36.4114074358921,6.0
361,36.0325895582587,6.016666666666667
362,35.60842991251406,6.033333333333333
363,35.13892849865814,6.05
364,34.62718104686469,6.066666666666666
365,34.151677621567714,6.083333333333333
366,33.865291771963285,6.1
367,33.63162422981052,6.116666666666666
368,33.43783939088979,6.133333333333333
369,33.23566548485431,6.15
370,33.011792918720715,6.166666666666667
371,32.76441578886769,6.183333333333334
372,32.48168257554699,6.2
373,32.189482483820825,6.216666666666667
374,31.8926450419203,6.233333333333333
375,31.554244312584423,6.25
376,31.174280295813126,6.266666666666667
377,30.786521273604734,6.283333333333333
378,30.38035349345309,6.3
379,29.968177194178036,6.316666666666666
380,29.575832355730412,6.333333333333333
381,29.14494701438814,6.35
382,28.687872603605705,6.366666666666666
383,28.33916680301229,6.383333333333333
384,28.035753125316468,6.4
385,27.82752053009817,6.416666666666667
386,27.79780907706875,6.433333333333334
387,27.729557121144634,6.45
388,27.636346620939353,6.466666666666667
389,27.553090843283364,6.483333333333333
390,27.502205519618958,6.5
391,27.506309159853576,6.516666666666667
392,27.543426435051014,6.533333333333333
393,27.58193419095265,6.55
394,27.61935374460752,6.566666666666666
395,27.61974418763807,6.583333333333333
396,27.631716828307958,6.6
397,27.643010287333116,6.616666666666666
398,27.63996231295028,6.633333333333333
399,27.600713869754497,6.6499999999999995
400,27.62652719007132,6.666666666666667
401,27.65760781757577,6.683333333333334
402,27.787599307937814,6.7
403,27.881733856536698,6.716666666666667
404,27.950618183353033,6.733333333333333
405,28.071703900082923,6.75
406,28.158583765789828,6.766666666666667
407,28.26306022581084,6.783333333333333
408,28.421066316806936,6.8
409,28.546650419570692,6.816666666666666
410,28.656438793644337,6.833333333333333
411,28.782367052881526,6.85
412,28.87312615875453,6.866666666666666
413,28.926856154003282,6.883333333333333
414,28.969108909262637,6.8999999999999995
415,29.087147071220592,6.916666666666667
416,29.23523286590085,6.933333333333334
417,29.396663729833705,6.95
418,29.547180347229354,6.966666666666667
419,29.681857993495235,6.983333333333333
420,29.82796491394673,7.0
421,30.040949788248405,7.016666666666667
422,30.250428756956815,7.033333333333333
423,30.453316375804643,7.05
424,30.714968186142823,7.066666666666666
425,30.958478670802304,7.083333333333333
426,31.190975723902138,7.1
427,31.42409958526639,7.116666666666666
428,31.70941413045952,7.133333333333333
429,31.97682980286538,7.1499999999999995
430,32.23645046964037,7.166666666666667
431,32.5441425420872,7.183333333333334
432,32.88018696895561,7.2
433,33.25719589887885,7.216666666666667
434,33.616730930158475,7.233333333333333
435,33.93470267400274,7.25
436,34.25479666439209,7.266666666666667
437,34.56453132036316,7.283333333333333
438,34.862814556036035,7.3
439,35.12560788707436,7.316666666666666
440,35.365836971064304,7.333333333333333
441,35.77668072602394,7.35
442,36.21870240460916,7.366666666666666
443,36.6376981267808,7.383333333333333
444,37.01059638470598,7.3999999999999995
445,37.38224721915914,7.416666666666667
446,37.75044756629023,7.433333333333334
447,38.12892275679602,7.45
448,38.48564712292656,7.466666666666667
449,38.85733416775204,7.483333333333333
450,39.262331878291704,7.5
451,39.63259779467605,7.516666666666667
452,39.97549701518203,7.533333333333333
453,40.32468740595927,7.55
454,40.71113319648069,7.566666666666666
455,41.103415060270514,7.583333333333333
456,41.50151116601346,7.6
457,41.87726249168739,7.616666666666666
458,42.26008723811164,7.633333333333333
459,42.72047978474469,7.6499999999999995
460,43.230442743763184,7.666666666666667
461,43.768962620436824,7.683333333333334
462,44.31761060971434,7.7
463,44.895883986386444,7.716666666666667
464,45.59223992196417,7.733333333333333
465,46.238775750434435,7.75
466,46.9438141103417,7.766666666666667
467,47.70012603305151,7.783333333333333
468,48.45714883460209,7.8
469,49.25530249767139,7.816666666666666
470,49.98771059697919,7.833333333333333
471,50.65437313252567,7.85
472,51.309082759193444,7.866666666666666
473,51.95343116235888,7.883333333333333
474,52.54179308252686,7.8999999999999995
475,53.122955212895384,7.916666666666667
476,53.64230979567669,7.933333333333334
477,54.12982196743451,7.95
478,54.597268202737894,7.966666666666667
479,55.096662331657086,7.983333333333333
480,55.57322688054597,8.0
481,56.04141012936174,8.016666666666666
482,56.52013145564819,8.033333333333333
483,57.07933567987461,8.05
484,57.80061489395975,8.066666666666666
485,58.54769346914972,8.083333333333334
486,59.24253087558987,8.1
487,59.899604046904265,8.116666666666667
488,60.50990393104685,8.133333333333333
489,61.149591368405815,8.15
490,61.809893461472775,8.166666666666666
491,62.412691276923766,8.183333333333334
492,63.085546846971226,8.2
493,63.980245834459154,8.216666666666667
494,64.94026215749793,8.233333333333333
495,65.89398038352641,8.25
496,66.96961412183641,8.266666666666666
497,68.13603593431657,8.283333333333333
498,69.41794165594753,8.3
499,70.75637607269805,8.316666666666666
500,72.1450216695212,8.333333333333334
501,73.60787389796624,8.35
502,75.101680489324,8.366666666666667
503,76.60631410708531,8.383333333333333
504,78.10445031260141,8.4
505,79.65159771579619,8.416666666666666
506,81.27600665255231,8.433333333333334
507,82.8921160511044,8.45
508,84.67276222435717,8.466666666666667
509,86.80277763731729,8.483333333333333
510,89.05320294309708,8.5
511,91.25966184773137,8.516666666666666
512,93.46335007654446,8.533333333333333
513,95.6730002230977,8.55
514,97.8347814272007,8.566666666666666
515,99.99744847568964,8.583333333333334
516,102.10983958477034,8.6
517,104.1685456206581,8.616666666666667
518,106.17882203004548,8.633333333333333
519,108.26997713322858,8.65
520,110.31743631168865,8.666666666666666
521,112.29207104751832,8.683333333333334
522,114.37739962943233,8.7
523,116.51125355852733,8.716666666666667
524,118.61974317617981,8.733333333333333
525,120.7080938073846,8.75
526,122.76439588978072,8.766666666666666
527,124.90420722349006,8.783333333333333
528,126.9733669513534,8.8
529,128.95603242835608,8.816666666666666
530,130.94177316878077,8.833333333333334
531,132.8948636380563,8.85
532,134.81561293624856,8.866666666666667
533,136.71030803554808,8.883333333333333
534,138.52587450805365,8.9
535,140.30160960142425,8.916666666666666
536,142.05459456765664,8.933333333333334
537,143.75985963185596,8.95
538,145.43418208825858,8.966666666666667
539,147.32922785187873,8.983333333333333
540,149.30478275289215,9.0
541,151.20133634011006,9.016666666666666
542,153.37659160672465,9.033333333333333
543,155.7085607237339,9.05
544,157.95648929319046,9.066666666666666
545,160.28175570053912,9.083333333333334
546,162.69160749107786,9.1
547,165.1596605834741,9.116666666666667
548,167.6446758006082,9.133333333333333
549,170.12318667847393,9.15
550,172.51868706484044,9.166666666666666
551,174.897355474532,9.183333333333334
552,177.2515878195295,9.2
